INDEX VERSION 1.131+/Users/ramanjitkaur/Documents/git/Spring_Projects/.metadata/.plugins/org.eclipse.jdt.core
4193552821.index
3476615049.index
1294058263.index
2634940554.index
229391595.index
2736593751.index
351429590.index
1569739590.index
2740148273.index
2017739113.index
268392036.index
873914151.index
3569849277.index
3463678571.index
316450257.index
588566254.index
3756148134.index
2894510725.index
1614059814.index
619831276.index
281532698.index
1180161153.index
3996791726.index
473154240.index
1633997571.index
1837638955.index
3770179743.index
3618356706.index
377594764.index
344799050.index
643438701.index
4045218854.index
3689442270.index
1122563966.index
1458509553.index
1809059516.index
614998159.index
3697146239.index
1520452351.index
1940364503.index
3739596614.index
941965133.index
1935206211.index
2806256299.index
1875067942.index
3484533466.index
318230546.index
1137393473.index
3048081984.index
1740432149.index
2244007393.index
219861521.index
1111531035.index
4091287583.index
531322532.index
2705499474.index
4028303299.index
611819341.index
2413719332.index
14590637.index
1093156452.index
2564710872.index
3470123759.index
4139053655.index
1502232344.index
3537204703.index
3538650433.index
2334432025.index
3716273.index
2771805770.index
3849625788.index
1325808895.index
3312792954.index
586847339.index
904014394.index
3296418730.index
835227783.index
537593935.index
2673638289.index
1257661960.index
2069603133.index
248495122.index
3134762739.index
1392008299.index
2928586715.index
311879958.index
4259562287.index
292566108.index
2195362447.index
2267827104.index
2220430033.index
665671311.index
459913761.index
470605588.index
405047386.index
159808130.index
2950953123.index
2819114848.index
3929846427.index
3693061817.index
3222722112.index
2773872584.index
653123313.index
2152618059.index
2530290580.index
2506478687.index
917555616.index
2304094697.index
3911122620.index
2848675075.index
383818376.index
1024592523.index
1924484980.index
2907024559.index
1948913062.index
1325031757.index
4076843818.index
3574199322.index
2662365655.index
475203867.index
1397601588.index
227618840.index
1245434267.index
2067577562.index
4111101628.index
2725457172.index
149663396.index
3374556416.index
3513762216.index
1234170440.index
1215467462.index
238296549.index
394361518.index
812966212.index
158108307.index
1579424981.index
372338635.index
531408988.index
3834753099.index
3526309479.index
544460817.index
4039252360.index
987086838.index
327525468.index
3408897299.index
2884940345.index
1541707638.index
4263904563.index
1894059068.index
1346598775.index
1581786818.index
2494554013.index
3094991225.index
869260969.index
2022979369.index
1056694689.index
1465581486.index
1218366197.index
3272653441.index
1926635890.index
1941742643.index
4003981049.index
3839807619.index
441570275.index
3442798490.index
1361809275.index
2137426344.index
838164640.index
4129475470.index
348684692.index
283101966.index
2196584773.index
2937064524.index
3664133233.index
3242865762.index
3404649861.index
4076593355.index
1754258027.index
956645393.index
105897401.index
4215860901.index
849838906.index
222591533.index
3173168779.index
